num crossings	time (s)	maj axis (mm)	min axis (mm)	theta (rad )	slope (V/s)
2099	4125.356879	69.644117	11.242106	-1.494268	5.238626
2101	4127.445512	69.536579	11.135850	-1.493356	5.568516
2103	4129.534620	69.298946	11.074444	-1.494972	5.235013
2107	4133.717143	68.625843	11.129166	-1.491697	5.240160
2109	4135.813846	68.529997	11.181209	-1.481759	5.419646
2111	4137.908644	68.942686	11.235648	-1.477524	4.971196
2113	4139.994037	69.203820	11.009420	-1.486932	5.253542
2115	4142.079917	68.702544	11.138746	-1.493981	5.207361
2117	4144.175255	68.189890	11.231953	-1.487618	5.080414
2121	4148.362603	68.910612	11.108846	-1.478617	5.137117
2123	4150.447262	68.377837	11.045587	-1.486305	4.903412
2125	4152.536448	68.071804	11.139576	-1.486804	5.339289
2127	4154.630836	67.793451	11.153557	-1.481161	5.035408
2131	4158.820537	67.854091	11.183452	-1.474063	4.820170
2133	4160.912116	67.911391	11.193632	-1.472805	5.118513
2135	4163.002855	67.635739	11.187558	-1.471236	5.001761
2137	4165.094150	67.524010	11.220878	-1.470819	5.096858
2139	4167.185130	67.537815	11.236895	-1.471831	4.786851
2141	4169.277054	67.110841	11.191176	-1.471198	5.121404
2143	4171.367741	67.467756	11.249088	-1.471811	4.878020
2145	4173.456534	67.214981	11.243970	-1.470245	4.950298
2147	4175.543897	67.235779	11.234930	-1.465508	4.873651
2149	4177.631926	67.217134	11.310050	-1.459003	4.991536
2153	4181.817864	66.308627	11.207408	-1.460263	4.933200
2155	4183.914664	66.449362	11.226523	-1.466029	4.752264
2157	4186.005635	66.668570	11.304514	-1.465508	4.864492
2161	4190.178861	66.767133	11.371718	-1.448695	4.935931
2163	4192.270515	65.945908	11.239478	-1.447065	4.849898
2165	4194.365884	65.857132	11.235275	-1.453878	4.809773
2169	4198.554041	65.914852	11.334758	-1.454004	4.739900
2171	4200.644826	65.688205	11.343686	-1.451842	4.809566
2173	4202.734933	65.987587	11.350262	-1.450194	4.765133
2175	4204.825352	65.728270	11.315955	-1.446773	4.784845
2179	4209.008991	65.507134	11.398469	-1.441677	4.838215
2181	4211.101667	65.469807	11.347706	-1.439742	4.743583
2183	4213.193384	65.352077	11.381040	-1.436311	4.752827
2185	4215.282073	65.284448	11.350901	-1.438667	4.802749
2187	4217.368568	65.266888	11.372078	-1.441105	4.686831
2191	4221.547113	64.688438	11.398547	-1.442778	4.686579
2193	4223.641834	64.715533	11.504556	-1.437831	4.608840
2195	4225.738293	64.470204	11.466542	-1.432415	4.674872
2199	4229.921343	64.667831	11.441015	-1.428547	4.698631
2201	4232.008394	64.939755	11.562197	-1.432728	4.559186
2205	4236.185727	64.504458	11.538709	-1.431780	4.574225
2207	4238.276709	64.216942	11.543153	-1.430458	4.482411
2211	4242.459743	64.197932	11.549107	-1.423604	4.687683
2213	4244.551144	64.030146	11.618166	-1.421668	4.763899
2215	4246.642075	64.019720	11.577445	-1.420889	4.362302
2219	4250.824771	63.360107	11.574064	-1.416118	4.495204
2221	4252.917519	63.553652	11.634387	-1.415224	4.353942
2223	4255.012523	63.009882	11.594186	-1.416699	4.645518
2227	4259.200617	63.133159	11.648518	-1.420455	4.278961
2229	4261.289884	63.403724	11.672199	-1.416837	4.334034
2231	4263.376545	63.572937	11.695531	-1.413234	4.357427
2235	4267.554227	62.801566	11.650303	-1.403842	4.568113
2237	4269.646062	62.651154	11.711788	-1.402816	4.510022
2241	4273.833926	62.155666	11.732355	-1.404237	4.308563
2243	4275.927602	62.514006	11.808812	-1.403798	4.263327
2245	4278.020380	62.491340	11.684941	-1.404486	4.275029
2247	4280.112527	62.398359	11.766828	-1.402077	4.329371
2249	4282.203947	62.334155	11.797488	-1.399735	4.137858
2251	4284.295002	62.309692	11.812635	-1.399130	4.292971
2253	4286.385863	62.092192	11.823782	-1.394686	4.200097
2255	4288.475554	62.416840	11.868076	-1.394880	4.144103
2257	4290.564438	62.173101	11.874857	-1.394359	4.118691
2259	4292.652424	62.079819	11.899287	-1.394339	4.253331
2261	4294.741218	61.785059	11.871975	-1.396623	4.237555
2263	4296.830808	61.907149	11.901404	-1.394758	4.034403
2265	4298.922566	61.507994	11.891038	-1.393562	4.154878
2269	4303.110974	61.241490	11.961399	-1.387408	4.211021
2271	4305.206110	61.048004	11.965016	-1.381880	4.293762
2273	4307.299274	60.981735	11.950992	-1.381186	3.997421
2277	4311.478071	61.151910	11.977769	-1.382055	4.050430
2279	4313.565581	61.321802	12.053542	-1.382443	4.126471
2281	4315.654752	61.203025	12.043086	-1.381937	4.014562
2283	4317.745021	60.577568	12.045219	-1.378663	3.882191
2287	4321.927089	60.512358	12.073787	-1.377206	4.027677
2289	4324.019201	60.607515	12.090009	-1.374807	4.041070
2291	4326.112515	60.134849	12.083542	-1.373877	3.822403
2295	4330.300733	60.172190	12.132341	-1.375733	3.936753
2297	4332.393447	59.823736	12.161457	-1.374775	3.895806
2299	4334.483973	60.164963	12.154448	-1.373867	3.985831
2301	4336.572294	60.238569	12.139768	-1.371328	3.977225
2303	4338.660038	60.236570	12.163069	-1.368514	3.943756
2305	4340.748198	60.122508	12.157272	-1.365008	4.126108
2309	4344.928364	59.783323	12.234113	-1.358759	3.784784
2311	4347.019905	59.421797	12.223959	-1.356911	3.887450
2313	4349.112069	59.433066	12.214510	-1.358298	3.920968
2317	4353.296623	59.268478	12.281092	-1.354742	3.809903
2319	4355.389530	58.930958	12.288224	-1.353963	3.830110
2323	4359.573090	58.951382	12.318039	-1.353952	3.675651
2325	4361.664556	59.037680	12.336672	-1.353677	3.698884
2327	4363.755477	58.829209	12.359773	-1.351962	3.818671
2331	4367.936030	58.858275	12.366199	-1.349858	3.752768
2333	4370.025405	58.586364	12.364840	-1.350283	3.570572
2335	4372.115808	58.711465	12.383643	-1.347493	3.860727
2337	4374.205536	58.530409	12.375528	-1.348430	3.725539
2339	4376.295869	58.413882	12.429238	-1.346226	3.762405
2341	4378.387091	58.346241	12.444591	-1.345291	3.604557
2345	4382.571216	58.272118	12.433616	-1.342589	3.572277
2347	4384.665227	57.961674	12.455163	-1.341770	3.586021
2349	4386.759470	57.896349	12.459256	-1.339227	3.559913
2351	4388.853723	57.648315	12.560623	-1.335218	3.508041
2353	4390.946775	57.746550	12.475844	-1.331885	3.594749
2355	4393.037664	57.738996	12.520375	-1.329856	3.627369
2357	4395.127187	57.778521	12.480432	-1.332749	3.605119
2359	4397.215515	57.556887	12.525682	-1.331837	3.688599
2361	4399.304591	57.722825	12.540018	-1.332579	3.583752
2363	4401.394406	57.056711	12.551116	-1.328620	3.583948
2365	4403.485208	57.254070	12.577645	-1.329158	3.424291
2369	4407.668923	56.930260	12.599188	-1.325696	3.484197
2371	4409.761761	56.860789	12.622720	-1.324808	3.655002
2375	4413.948366	56.785981	12.660686	-1.325315	3.579939
2377	4416.040120	56.653671	12.677709	-1.324873	3.530908
2379	4418.130773	56.604924	12.674851	-1.323501	3.334682
2381	4420.219803	56.716402	12.690270	-1.322282	3.437392
2383	4422.307964	56.708728	12.698961	-1.318360	3.282201
2385	4424.396511	56.409126	12.714050	-1.316178	3.500377
2387	4426.485468	56.488889	12.721677	-1.314219	3.402772
2391	4430.665982	56.522521	12.772977	-1.309311	3.435380
2393	4432.756577	56.168128	12.769191	-1.309193	3.443321
2395	4434.847540	56.049839	12.757631	-1.307276	3.398457
2399	4439.030296	55.569607	12.768438	-1.303171	3.327059
2401	4441.121374	55.793694	12.786102	-1.303212	3.341305
2403	4443.212451	55.765328	12.844130	-1.303522	3.408873
